time(min)	-1,-1,-1	-1,-1,0	-1,-1,1	0,-1,-1	0,-1,0	0,-1,1	1,-1,-1	1,-1,0	1,-1,1	-1,0,-1	-1,0,0	-1,0,1	0,0,-1	0,0,0	0,0,1	1,0,-1	1,0,0	1,0,1	-1,1,-1	-1,1,0	-1,1,1	0,1,-1	0,1,0	0,1,1	1,1,-1	1,1,0	1,1,1
0.0166667	3.82817	3.01377	3.8365	3.01377	1.89151	3.01939	3.8365	3.01939	3.8365	3.01377	1.89151	3.01939	1.89151	0.298393	1.89151	3.01939	1.89151	3.01377	3.8365	3.01939	3.8365	3.01939	1.89151	3.01377	3.8365	3.01377	3.82817
0.0333333	6.47235	5.35801	6.48337	5.35801	3.66719	5.36612	6.48337	5.36612	6.48337	5.35801	3.66719	5.36612	3.66719	1.03284	3.66719	5.36612	3.66719	5.35801	6.48337	5.36612	6.48337	5.36612	3.66719	5.35801	6.48337	5.35801	6.47235
0.05	7.87238	6.80288	7.8824	6.80288	5.04349	6.81087	7.8824	6.81087	7.8824	6.80288	5.04349	6.81087	5.04349	2.08919	5.04349	6.81087	5.04349	6.80288	7.8824	6.81087	7.8824	6.81087	5.04349	6.80288	7.8824	6.80288	7.87238
0.0666667	8.61501	7.70301	8.62313	7.70301	6.1073	7.70991	8.62313	7.70991	8.62313	7.70301	6.1073	7.70991	6.1073	3.27411	6.1073	7.70991	6.1073	7.70301	8.62313	7.70991	8.62313	7.70991	6.1073	7.70301	8.62313	7.70301	8.61501
0.0833333	9.03975	8.29749	9.0461	8.29749	6.93999	8.30316	9.0461	8.30316	9.0461	8.29749	6.93999	8.30316	6.93999	4.4318	6.93999	8.30316	6.93999	8.29749	9.0461	8.30316	9.0461	8.30316	6.93999	8.29749	9.0461	8.29749	9.03975
0.1	9.30409	8.71185	9.30902	8.71185	7.59512	8.7164	9.30902	8.7164	9.30902	8.71185	7.59512	8.7164	7.59512	5.47374	7.59512	8.7164	7.59512	8.71185	9.30902	8.7164	9.30902	8.7164	7.59512	8.71185	9.30902	8.71185	9.30409
0.116667	9.48074	9.01237	9.48458	9.01237	8.11082	9.01599	9.48458	9.01599	9.48458	9.01237	8.11082	9.01599	8.11082	6.36535	8.11082	9.01599	8.11082	9.01237	9.48458	9.01599	9.48458	9.01599	8.11082	9.01237	9.48458	9.01237	9.48074
0.133333	9.60526	9.23634	9.60825	9.23634	8.51646	9.2392	9.60825	9.2392	9.60825	9.23634	8.51646	9.2392	8.51646	7.10461	8.51646	9.2392	8.51646	9.23634	9.60825	9.2392	9.60825	9.2392	8.51646	9.23634	9.60825	9.23634	9.60526
0.15	9.69636	9.40631	9.69869	9.40631	8.83526	9.40857	9.69869	9.40857	9.69869	9.40631	8.83526	9.40857	8.83526	7.70546	8.83526	9.40857	8.83526	9.40631	9.69869	9.40857	9.69869	9.40857	8.83526	9.40631	9.69869	9.40631	9.69636
0.166667	9.76469	9.53685	9.76651	9.53685	9.08567	9.53863	9.76651	9.53863	9.76651	9.53685	9.08567	9.53863	9.08567	8.18767	9.08567	9.53863	9.08567	9.53685	9.76651	9.53863	9.76651	9.53863	9.08567	9.53685	9.76651	9.53685	9.76469
0.183333	9.81678	9.63789	9.81821	9.63789	9.2823	9.63928	9.81821	9.63928	9.81821	9.63789	9.2823	9.63928	9.2823	8.57156	9.2823	9.63928	9.2823	9.63789	9.81821	9.63928	9.81821	9.63928	9.2823	9.63789	9.81821	9.63789	9.81678
0.2	9.85692	9.71648	9.85804	9.71648	9.43666	9.71758	9.85804	9.71758	9.85804	9.71648	9.43666	9.71758	9.43666	8.87561	9.43666	9.71758	9.43666	9.71648	9.85804	9.71758	9.85804	9.71758	9.43666	9.71648	9.85804	9.71648	9.85692
0.216667	9.88806	9.77782	9.88894	9.77782	9.55783	9.77868	9.88894	9.77868	9.88894	9.77782	9.55783	9.77868	9.55783	9.11564	9.55783	9.77868	9.55783	9.77782	9.88894	9.77868	9.88894	9.77868	9.55783	9.77782	9.88894	9.77782	9.88806
0.233333	9.91232	9.82579	9.91301	9.82579	9.65294	9.82646	9.91301	9.82646	9.91301	9.82579	9.65294	9.82646	9.65294	9.30473	9.65294	9.82646	9.65294	9.82579	9.91301	9.82646	9.91301	9.82646	9.65294	9.82579	9.91301	9.82579	9.91232
0.25	9.93127	9.86335	9.93181	9.86335	9.72759	9.86388	9.93181	9.86388	9.93181	9.86335	9.72759	9.86388	9.72759	9.45349	9.72759	9.86388	9.72759	9.86335	9.93181	9.86388	9.93181	9.86388	9.72759	9.86335	9.93181	9.86335	9.93127
0.266667	9.9461	9.89279	9.94652	9.89279	9.78618	9.8932	9.94652	9.8932	9.94652	9.89279	9.78618	9.8932	9.78618	9.57043	9.78618	9.8932	9.78618	9.89279	9.94652	9.8932	9.94652	9.8932	9.78618	9.89279	9.94652	9.89279	9.9461
0.283333	9.95771	9.91587	9.95805	9.91587	9.83217	9.9162	9.95805	9.9162	9.95805	9.91587	9.83217	9.9162	9.83217	9.6623	9.83217	9.9162	9.83217	9.91587	9.95805	9.9162	9.95805	9.9162	9.83217	9.91587	9.95805	9.91587	9.95771
0.3	9.96682	9.93398	9.96708	9.93398	9.86827	9.93423	9.96708	9.93423	9.96708	9.93398	9.86827	9.93423	9.86827	9.73445	9.86827	9.93423	9.86827	9.93398	9.96708	9.93423	9.96708	9.93423	9.86827	9.93398	9.96708	9.93398	9.96682
0.316667	9.97396	9.94818	9.97417	9.94818	9.8966	9.94838	9.97417	9.94838	9.97417	9.94818	9.8966	9.94838	9.8966	9.7911	9.8966	9.94838	9.8966	9.94818	9.97417	9.94838	9.97417	9.94838	9.8966	9.94818	9.97417	9.94818	9.97396
0.333333	9.97957	9.95933	9.97973	9.95933	9.91884	9.95949	9.97973	9.95949	9.97973	9.95933	9.91884	9.95949	9.91884	9.83558	9.91884	9.95949	9.91884	9.95933	9.97973	9.95949	9.97973	9.95949	9.91884	9.95933	9.97973	9.95933	9.97957
0.35	9.98396	9.96808	9.98409	9.96808	9.9363	9.9682	9.98409	9.9682	9.98409	9.96808	9.9363	9.9682	9.9363	9.8705	9.9363	9.9682	9.9363	9.96808	9.98409	9.9682	9.98409	9.9682	9.9363	9.96808	9.98409	9.96808	9.98396
0.366667	9.98741	9.97495	9.98751	9.97495	9.95	9.97504	9.98751	9.97504	9.98751	9.97495	9.95	9.97504	9.95	9.8979	9.95	9.97504	9.95	9.97495	9.98751	9.97504	9.98751	9.97504	9.95	9.97495	9.98751	9.97495	9.98741
0.383333	9.99012	9.98033	9.9902	9.98033	9.96075	9.98041	9.9902	9.98041	9.9902	9.98033	9.96075	9.98041	9.96075	9.91942	9.96075	9.98041	9.96075	9.98033	9.9902	9.98041	9.9902	9.98041	9.96075	9.98033	9.9902	9.98033	9.99012
0.4	9.99224	9.98456	9.99231	9.98456	9.96919	9.98462	9.99231	9.98462	9.99231	9.98456	9.96919	9.98462	9.96919	9.9363	9.96919	9.98462	9.96919	9.98456	9.99231	9.98462	9.99231	9.98462	9.96919	9.98456	9.99231	9.98456	9.99224
0.416667	9.99391	9.98788	9.99396	9.98788	9.97581	9.98793	9.99396	9.98793	9.99396	9.98788	9.97581	9.98793	9.97581	9.94956	9.97581	9.98793	9.97581	9.98788	9.99396	9.98793	9.99396	9.98793	9.97581	9.98788	9.99396	9.98788	9.99391
0.433333	9.99522	9.99049	9.99526	9.99049	9.98101	9.99053	9.99526	9.99053	9.99526	9.99049	9.98101	9.99053	9.98101	9.95996	9.98101	9.99053	9.98101	9.99049	9.99526	9.99053	9.99526	9.99053	9.98101	9.99049	9.99526	9.99049	9.99522
0.45	9.99625	9.99253	9.99628	9.99253	9.98509	9.99256	9.99628	9.99256	9.99628	9.99253	9.98509	9.99256	9.98509	9.96812	9.98509	9.99256	9.98509	9.99253	9.99628	9.99256	9.99628	9.99256	9.98509	9.99253	9.99628	9.99253	9.99625
0.466667	9.99706	9.99414	9.99708	9.99414	9.9883	9.99416	9.99708	9.99416	9.99708	9.99414	9.9883	9.99416	9.9883	9.97453	9.9883	9.99416	9.9883	9.99414	9.99708	9.99416	9.99708	9.99416	9.9883	9.99414	9.99708	9.99414	9.99706
0.483333	9.99769	9.9954	9.99771	9.9954	9.99081	9.99542	9.99771	9.99542	9.99771	9.9954	9.99081	9.99542	9.99081	9.97956	9.99081	9.99542	9.99081	9.9954	9.99771	9.99542	9.99771	9.99542	9.99081	9.9954	9.99771	9.9954	9.99769
0.5	9.99819	9.99639	9.9982	9.99639	9.99278	9.9964	9.9982	9.9964	9.9982	9.99639	9.99278	9.9964	9.99278	9.98351	9.99278	9.9964	9.99278	9.99639	9.9982	9.9964	9.9982	9.9964	9.99278	9.99639	9.9982	9.99639	9.99819
0.516667	9.99857	9.99716	9.99859	9.99716	9.99433	9.99717	9.99859	9.99717	9.99859	9.99716	9.99433	9.99717	9.99433	9.98661	9.99433	9.99717	9.99433	9.99716	9.99859	9.99717	9.99859	9.99717	9.99433	9.99716	9.99859	9.99716	9.99857
0.533333	9.99888	9.99777	9.99889	9.99777	9.99555	9.99778	9.99889	9.99778	9.99889	9.99777	9.99555	9.99778	9.99555	9.98904	9.99555	9.99778	9.99555	9.99777	9.99889	9.99778	9.99889	9.99778	9.99555	9.99777	9.99889	9.99777	9.99888
0.55	9.99912	9.99825	9.99913	9.99825	9.9965	9.99826	9.99913	9.99826	9.99913	9.99825	9.9965	9.99826	9.9965	9.99095	9.9965	9.99826	9.9965	9.99825	9.99913	9.99826	9.99913	9.99826	9.9965	9.99825	9.99913	9.99825	9.99912
0.566667	9.99931	9.99863	9.99932	9.99863	9.99725	9.99863	9.99932	9.99863	9.99932	9.99863	9.99725	9.99863	9.99725	9.99245	9.99725	9.99863	9.99725	9.99863	9.99932	9.99863	9.99932	9.99863	9.99725	9.99863	9.99932	9.99863	9.99931
0.583333	9.99946	9.99892	9.99946	9.99892	9.99784	9.99892	9.99946	9.99892	9.99946	9.99892	9.99784	9.99892	9.99784	9.99363	9.99784	9.99892	9.99784	9.99892	9.99946	9.99892	9.99946	9.99892	9.99784	9.99892	9.99946	9.99892	9.99946
0.6	9.99957	9.99915	9.99958	9.99915	9.9983	9.99915	9.99958	9.99915	9.99958	9.99915	9.9983	9.99915	9.9983	9.99455	9.9983	9.99915	9.9983	9.99915	9.99958	9.99915	9.99958	9.99915	9.9983	9.99915	9.99958	9.99915	9.99957
0.616667	9.99966	9.99933	9.99967	9.99933	9.99866	9.99933	9.99967	9.99933	9.99967	9.99933	9.99866	9.99933	9.99866	9.99527	9.99866	9.99933	9.99866	9.99933	9.99967	9.99933	9.99967	9.99933	9.99866	9.99933	9.99967	9.99933	9.99966
0.633333	9.99974	9.99947	9.99974	9.99947	9.99895	9.99948	9.99974	9.99948	9.99974	9.99947	9.99895	9.99948	9.99895	9.99584	9.99895	9.99948	9.99895	9.99947	9.99974	9.99948	9.99974	9.99948	9.99895	9.99947	9.99974	9.99947	9.99974
0.65	9.99979	9.99959	9.99979	9.99959	9.99917	9.99959	9.99979	9.99959	9.99979	9.99959	9.99917	9.99959	9.99917	9.99629	9.99917	9.99959	9.99917	9.99959	9.99979	9.99959	9.99979	9.99959	9.99917	9.99959	9.99979	9.99959	9.99979
0.666667	9.99984	9.99967	9.99984	9.99967	9.99935	9.99968	9.99984	9.99968	9.99984	9.99967	9.99935	9.99968	9.99935	9.99664	9.99935	9.99968	9.99935	9.99967	9.99984	9.99968	9.99984	9.99968	9.99935	9.99967	9.99984	9.99967	9.99984
0.683333	9.99987	9.99974	9.99987	9.99974	9.99948	9.99974	9.99987	9.99974	9.99987	9.99974	9.99948	9.99974	9.99948	9.99691	9.99948	9.99974	9.99948	9.99974	9.99987	9.99974	9.99987	9.99974	9.99948	9.99974	9.99987	9.99974	9.99987
0.7	9.9999	9.9998	9.9999	9.9998	9.99959	9.9998	9.9999	9.9998	9.9999	9.9998	9.99959	9.9998	9.99959	9.99713	9.99959	9.9998	9.99959	9.9998	9.9999	9.9998	9.9999	9.9998	9.99959	9.9998	9.9999	9.9998	9.9999
0.716667	9.99992	9.99984	9.99992	9.99984	9.99968	9.99984	9.99992	9.99984	9.99992	9.99984	9.99968	9.99984	9.99968	9.9973	9.99968	9.99984	9.99968	9.99984	9.99992	9.99984	9.99992	9.99984	9.99968	9.99984	9.99992	9.99984	9.99992
0.733333	9.99994	9.99987	9.99994	9.99987	9.99974	9.99987	9.99994	9.99987	9.99994	9.99987	9.99974	9.99987	9.99974	9.99743	9.99974	9.99987	9.99974	9.99987	9.99994	9.99987	9.99994	9.99987	9.99974	9.99987	9.99994	9.99987	9.99994
0.75	9.99995	9.9999	9.99995	9.9999	9.99979	9.9999	9.99995	9.9999	9.99995	9.9999	9.99979	9.9999	9.99979	9.99754	9.99979	9.9999	9.99979	9.9999	9.99995	9.9999	9.99995	9.9999	9.99979	9.9999	9.99995	9.9999	9.99995
0.766667	9.99996	9.99992	9.99996	9.99992	9.99983	9.99992	9.99996	9.99992	9.99996	9.99992	9.99983	9.99992	9.99983	9.99762	9.99983	9.99992	9.99983	9.99992	9.99996	9.99992	9.99996	9.99992	9.99983	9.99992	9.99996	9.99992	9.99996
0.783333	9.99997	9.99994	9.99997	9.99994	9.99987	9.99994	9.99997	9.99994	9.99997	9.99994	9.99987	9.99994	9.99987	9.99768	9.99987	9.99994	9.99987	9.99994	9.99997	9.99994	9.99997	9.99994	9.99987	9.99994	9.99997	9.99994	9.99997
0.8	9.99997	9.99995	9.99997	9.99995	9.99989	9.99995	9.99997	9.99995	9.99997	9.99995	9.99989	9.99995	9.99989	9.99773	9.99989	9.99995	9.99989	9.99995	9.99997	9.99995	9.99997	9.99995	9.99989	9.99995	9.99997	9.99995	9.99997
0.816667	9.99998	9.99996	9.99998	9.99996	9.99991	9.99996	9.99998	9.99996	9.99998	9.99996	9.99991	9.99996	9.99991	9.99777	9.99991	9.99996	9.99991	9.99996	9.99998	9.99996	9.99998	9.99996	9.99991	9.99996	9.99998	9.99996	9.99998
0.833333	9.99998	9.99997	9.99998	9.99997	9.99993	9.99997	9.99998	9.99997	9.99998	9.99997	9.99993	9.99997	9.99993	9.9978	9.99993	9.99997	9.99993	9.99997	9.99998	9.99997	9.99998	9.99997	9.99993	9.99997	9.99998	9.99997	9.99998
0.85	9.99999	9.99997	9.99999	9.99997	9.99994	9.99997	9.99999	9.99997	9.99999	9.99997	9.99994	9.99997	9.99994	9.99783	9.99994	9.99997	9.99994	9.99997	9.99999	9.99997	9.99999	9.99997	9.99994	9.99997	9.99999	9.99997	9.99999
0.866667	9.99999	9.99998	9.99999	9.99998	9.99995	9.99998	9.99999	9.99998	9.99999	9.99998	9.99995	9.99998	9.99995	9.99785	9.99995	9.99998	9.99995	9.99998	9.99999	9.99998	9.99999	9.99998	9.99995	9.99998	9.99999	9.99998	9.99999
0.883333	9.99999	9.99998	9.99999	9.99998	9.99996	9.99998	9.99999	9.99998	9.99999	9.99998	9.99996	9.99998	9.99996	9.99786	9.99996	9.99998	9.99996	9.99998	9.99999	9.99998	9.99999	9.99998	9.99996	9.99998	9.99999	9.99998	9.99999
0.9	9.99999	9.99998	9.99999	9.99998	9.99996	9.99998	9.99999	9.99998	9.99999	9.99998	9.99996	9.99998	9.99996	9.99787	9.99996	9.99998	9.99996	9.99998	9.99999	9.99998	9.99999	9.99998	9.99996	9.99998	9.99999	9.99998	9.99999
0.916667	9.99999	9.99999	9.99999	9.99999	9.99997	9.99999	9.99999	9.99999	9.99999	9.99999	9.99997	9.99999	9.99997	9.99788	9.99997	9.99999	9.99997	9.99999	9.99999	9.99999	9.99999	9.99999	9.99997	9.99999	9.99999	9.99999	9.99999
0.933333	9.99999	9.99999	9.99999	9.99999	9.99997	9.99999	9.99999	9.99999	9.99999	9.99999	9.99997	9.99999	9.99997	9.99789	9.99997	9.99999	9.99997	9.99999	9.99999	9.99999	9.99999	9.99999	9.99997	9.99999	9.99999	9.99999	9.99999
0.95	9.99999	9.99999	10	9.99999	9.99997	9.99999	10	9.99999	10	9.99999	9.99997	9.99999	9.99997	9.9979	9.99997	9.99999	9.99997	9.99999	10	9.99999	10	9.99999	9.99997	9.99999	10	9.99999	9.99999
0.966667	10	9.99999	10	9.99999	9.99998	9.99999	10	9.99999	10	9.99999	9.99998	9.99999	9.99998	9.9979	9.99998	9.99999	9.99998	9.99999	10	9.99999	10	9.99999	9.99998	9.99999	10	9.99999	10
0.983333	10	9.99999	10	9.99999	9.99998	9.99999	10	9.99999	10	9.99999	9.99998	9.99999	9.99998	9.9979	9.99998	9.99999	9.99998	9.99999	10	9.99999	10	9.99999	9.99998	9.99999	10	9.99999	10
1	10	9.99999	10	9.99999	9.99998	9.99999	10	9.99999	10	9.99999	9.99998	9.99999	9.99998	9.99791	9.99998	9.99999	9.99998	9.99999	10	9.99999	10	9.99999	9.99998	9.99999	10	9.99999	10
1.01667	10	9.99999	10	9.99999	9.99998	9.99999	10	9.99999	10	9.99999	9.99998	9.99999	9.99998	9.99791	9.99998	9.99999	9.99998	9.99999	10	9.99999	10	9.99999	9.99998	9.99999	10	9.99999	10
1.03333	10	9.99999	10	9.99999	9.99998	9.99999	10	9.99999	10	9.99999	9.99998	9.99999	9.99998	9.99791	9.99998	9.99999	9.99998	9.99999	10	9.99999	10	9.99999	9.99998	9.99999	10	9.99999	10
1.05	10	9.99999	10	9.99999	9.99998	9.99999	10	9.99999	10	9.99999	9.99998	9.99999	9.99998	9.99791	9.99998	9.99999	9.99998	9.99999	10	9.99999	10	9.99999	9.99998	9.99999	10	9.99999	10
1.06667	10	9.99999	10	9.99999	9.99998	9.99999	10	9.99999	10	9.99999	9.99998	9.99999	9.99998	9.99791	9.99998	9.99999	9.99998	9.99999	10	9.99999	10	9.99999	9.99998	9.99999	10	9.99999	10
1.08333	10	9.99999	10	9.99999	9.99998	9.99999	10	9.99999	10	9.99999	9.99998	9.99999	9.99998	9.99791	9.99998	9.99999	9.99998	9.99999	10	9.99999	10	9.99999	9.99998	9.99999	10	9.99999	10
1.1	10	9.99999	10	9.99999	9.99998	9.99999	10	9.99999	10	9.99999	9.99998	9.99999	9.99998	9.99791	9.99998	9.99999	9.99998	9.99999	10	9.99999	10	9.99999	9.99998	9.99999	10	9.99999	10
1.11667	10	9.99999	10	9.99999	9.99998	9.99999	10	9.99999	10	9.99999	9.99998	9.99999	9.99998	9.99792	9.99998	9.99999	9.99998	9.99999	10	9.99999	10	9.99999	9.99998	9.99999	10	9.99999	10
1.13333	10	9.99999	10	9.99999	9.99998	9.99999	10	9.99999	10	9.99999	9.99998	9.99999	9.99998	9.99792	9.99998	9.99999	9.99998	9.99999	10	9.99999	10	9.99999	9.99998	9.99999	10	9.99999	10
1.15	10	9.99999	10	9.99999	9.99998	9.99999	10	9.99999	10	9.99999	9.99998	9.99999	9.99998	9.99792	9.99998	9.99999	9.99998	9.99999	10	9.99999	10	9.99999	9.99998	9.99999	10	9.99999	10
1.16667	10	9.99999	10	9.99999	9.99998	9.99999	10	9.99999	10	9.99999	9.99998	9.99999	9.99998	9.99792	9.99998	9.99999	9.99998	9.99999	10	9.99999	10	9.99999	9.99998	9.99999	10	9.99999	10
1.18333	10	9.99999	10	9.99999	9.99998	9.99999	10	9.99999	10	9.99999	9.99998	9.99999	9.99998	9.99792	9.99998	9.99999	9.99998	9.99999	10	9.99999	10	9.99999	9.99998	9.99999	10	9.99999	10
1.2	10	9.99999	10	9.99999	9.99998	9.99999	10	9.99999	10	9.99999	9.99998	9.99999	9.99998	9.99792	9.99998	9.99999	9.99998	9.99999	10	9.99999	10	9.99999	9.99998	9.99999	10	9.99999	10
1.21667	10	9.99999	10	9.99999	9.99998	9.99999	10	9.99999	10	9.99999	9.99998	9.99999	9.99998	9.99792	9.99998	9.99999	9.99998	9.99999	10	9.99999	10	9.99999	9.99998	9.99999	10	9.99999	10
1.23333	10	9.99999	10	9.99999	9.99998	9.99999	10	9.99999	10	9.99999	9.99998	9.99999	9.99998	9.99792	9.99998	9.99999	9.99998	9.99999	10	9.99999	10	9.99999	9.99998	9.99999	10	9.99999	10
1.25	10	9.99999	10	9.99999	9.99998	9.99999	10	9.99999	10	9.99999	9.99998	9.99999	9.99998	9.99792	9.99998	9.99999	9.99998	9.99999	10	9.99999	10	9.99999	9.99998	9.99999	10	9.99999	10
1.26667	10	9.99999	10	9.99999	9.99998	9.99999	10	9.99999	10	9.99999	9.99998	9.99999	9.99998	9.99792	9.99998	9.99999	9.99998	9.99999	10	9.99999	10	9.99999	9.99998	9.99999	10	9.99999	10
1.28333	10	9.99999	10	9.99999	9.99998	9.99999	10	9.99999	10	9.99999	9.99998	9.99999	9.99998	9.99792	9.99998	9.99999	9.99998	9.99999	10	9.99999	10	9.99999	9.99998	9.99999	10	9.99999	10
1.3	10	9.99999	10	9.99999	9.99998	9.99999	10	9.99999	10	9.99999	9.99998	9.99999	9.99998	9.99792	9.99998	9.99999	9.99998	9.99999	10	9.99999	10	9.99999	9.99998	9.99999	10	9.99999	10
1.31667	10	9.99999	10	9.99999	9.99998	9.99999	10	9.99999	10	9.99999	9.99998	9.99999	9.99998	9.99792	9.99998	9.99999	9.99998	9.99999	10	9.99999	10	9.99999	9.99998	9.99999	10	9.99999	10
1.33333	10	9.99999	10	9.99999	9.99998	9.99999	10	9.99999	10	9.99999	9.99998	9.99999	9.99998	9.99792	9.99998	9.99999	9.99998	9.99999	10	9.99999	10	9.99999	9.99998	9.99999	10	9.99999	10
1.35	10	9.99999	10	9.99999	9.99998	9.99999	10	9.99999	10	9.99999	9.99998	9.99999	9.99998	9.99792	9.99998	9.99999	9.99998	9.99999	10	9.99999	10	9.99999	9.99998	9.99999	10	9.99999	10
1.36667	10	9.99999	10	9.99999	9.99998	9.99999	10	9.99999	10	9.99999	9.99998	9.99999	9.99998	9.99792	9.99998	9.99999	9.99998	9.99999	10	9.99999	10	9.99999	9.99998	9.99999	10	9.99999	10
1.38333	10	9.99999	10	9.99999	9.99998	9.99999	10	9.99999	10	9.99999	9.99998	9.99999	9.99998	9.99792	9.99998	9.99999	9.99998	9.99999	10	9.99999	10	9.99999	9.99998	9.99999	10	9.99999	10
1.4	10	9.99999	10	9.99999	9.99998	9.99999	10	9.99999	10	9.99999	9.99998	9.99999	9.99998	9.99792	9.99998	9.99999	9.99998	9.99999	10	9.99999	10	9.99999	9.99998	9.99999	10	9.99999	10
1.41667	10	9.99999	10	9.99999	9.99998	9.99999	10	9.99999	10	9.99999	9.99998	9.99999	9.99998	9.99792	9.99998	9.99999	9.99998	9.99999	10	9.99999	10	9.99999	9.99998	9.99999	10	9.99999	10
1.43333	10	9.99999	10	9.99999	9.99998	9.99999	10	9.99999	10	9.99999	9.99998	9.99999	9.99998	9.99792	9.99998	9.99999	9.99998	9.99999	10	9.99999	10	9.99999	9.99998	9.99999	10	9.99999	10
1.45	10	9.99999	10	9.99999	9.99998	9.99999	10	9.99999	10	9.99999	9.99998	9.99999	9.99998	9.99792	9.99998	9.99999	9.99998	9.99999	10	9.99999	10	9.99999	9.99998	9.99999	10	9.99999	10
1.46667	10	9.99999	10	9.99999	9.99998	9.99999	10	9.99999	10	9.99999	9.99998	9.99999	9.99998	9.99792	9.99998	9.99999	9.99998	9.99999	10	9.99999	10	9.99999	9.99998	9.99999	10	9.99999	10
1.48333	10	9.99999	10	9.99999	9.99998	9.99999	10	9.99999	10	9.99999	9.99998	9.99999	9.99998	9.99792	9.99998	9.99999	9.99998	9.99999	10	9.99999	10	9.99999	9.99998	9.99999	10	9.99999	10
1.5	10	9.99999	10	9.99999	9.99998	9.99999	10	9.99999	10	9.99999	9.99998	9.99999	9.99998	9.99792	9.99998	9.99999	9.99998	9.99999	10	9.99999	10	9.99999	9.99998	9.99999	10	9.99999	10
1.51667	10	9.99999	10	9.99999	9.99998	9.99999	10	9.99999	10	9.99999	9.99998	9.99999	9.99998	9.99792	9.99998	9.99999	9.99998	9.99999	10	9.99999	10	9.99999	9.99998	9.99999	10	9.99999	10
1.53333	10	9.99999	10	9.99999	9.99998	9.99999	10	9.99999	10	9.99999	9.99998	9.99999	9.99998	9.99792	9.99998	9.99999	9.99998	9.99999	10	9.99999	10	9.99999	9.99998	9.99999	10	9.99999	10
1.55	10	9.99999	10	9.99999	9.99998	9.99999	10	9.99999	10	9.99999	9.99998	9.99999	9.99998	9.99792	9.99998	9.99999	9.99998	9.99999	10	9.99999	10	9.99999	9.99998	9.99999	10	9.99999	10
1.56667	10	9.99999	10	9.99999	9.99998	9.99999	10	9.99999	10	9.99999	9.99998	9.99999	9.99998	9.99792	9.99998	9.99999	9.99998	9.99999	10	9.99999	10	9.99999	9.99998	9.99999	10	9.99999	10
1.58333	10	9.99999	10	9.99999	9.99998	9.99999	10	9.99999	10	9.99999	9.99998	9.99999	9.99998	9.99792	9.99998	9.99999	9.99998	9.99999	10	9.99999	10	9.99999	9.99998	9.99999	10	9.99999	10
1.6	10	9.99999	10	9.99999	9.99998	9.99999	10	9.99999	10	9.99999	9.99998	9.99999	9.99998	9.99792	9.99998	9.99999	9.99998	9.99999	10	9.99999	10	9.99999	9.99998	9.99999	10	9.99999	10
